step    timeBC [s]      Q [erg/s]       R [1/s]         Eavg [MeV]      Sigma [MeV]     a               alpha           b             

7910	6.829223e+11	1.459343e+27	1.663435e+33	5.475712e-01	8.606147e-02	6.227633e+61	3.948216e+01	7.393041e+01
7920	6.531065e+11	1.807543e+27	2.059644e+33	5.477537e-01	8.627487e-02	5.752357e+61	3.930900e+01	7.358964e+01
7930	6.276641e+11	2.172147e+27	2.474386e+33	5.479120e-01	8.645935e-02	5.373665e+61	3.916037e+01	7.329711e+01
7940	6.015920e+11	2.683684e+27	3.056075e+33	5.480958e-01	8.667351e-02	4.965725e+61	3.898896e+01	7.295980e+01
7950	5.791679e+11	3.222794e+27	3.668916e+33	5.482564e-01	8.686032e-02	4.636808e+61	3.884048e+01	7.266761e+01
7960	5.564223e+11	3.959252e+27	4.505823e+33	5.484387e-01	8.707193e-02	4.292005e+61	3.867343e+01	7.233887e+01
7970	5.352749e+11	4.843196e+27	5.509984e+33	5.486188e-01	8.728065e-02	3.979131e+61	3.850986e+01	7.201696e+01
7980	5.169612e+11	5.805498e+27	6.602804e+33	5.487823e-01	8.746975e-02	3.716671e+61	3.836266e+01	7.172728e+01
7990	4.984989e+11	7.075424e+27	8.044498e+33	5.489623e-01	8.767794e-02	3.447949e+61	3.820165e+01	7.141046e+01
8000	4.813729e+11	8.600955e+27	9.775778e+33	5.491416e-01	8.788475e-02	3.202379e+61	3.804286e+01	7.109799e+01
8010	4.653020e+11	1.045988e+28	1.188469e+34	5.493230e-01	8.809361e-02	2.973267e+61	3.788363e+01	7.078463e+01
8020	4.503552e+11	1.268992e+28	1.441376e+34	5.495039e-01	8.830143e-02	2.762776e+61	3.772630e+01	7.047503e+01
8030	4.373473e+11	1.512552e+28	1.717503e+34	5.496696e-01	8.849187e-02	2.583153e+61	3.758306e+01	7.019319e+01
8040	4.242629e+11	1.832662e+28	2.080296e+34	5.498524e-01	8.870145e-02	2.400258e+61	3.742650e+01	6.988512e+01
8050	4.121076e+11	2.270202e+28	2.575978e+34	5.500615e-01	8.894102e-02	2.200109e+61	3.724884e+01	6.953557e+01
8060	4.006616e+11	2.684376e+28	3.045054e+34	5.502211e-01	8.912310e-02	2.072694e+61	3.711482e+01	6.927183e+01
8070	3.893729e+11	3.291299e+28	3.732170e+34	5.504208e-01	8.935096e-02	1.915911e+61	3.694821e+01	6.894399e+01
8080	3.793384e+11	3.986189e+28	4.518585e+34	5.506104e-01	8.956672e-02	1.779302e+61	3.679161e+01	6.863585e+01
8090	3.699502e+11	4.831424e+28	5.474800e+34	5.508025e-01	8.978514e-02	1.651409e+61	3.663421e+01	6.832615e+01
8100	3.616379e+11	5.786753e+28	6.555179e+34	5.509844e-01	8.999160e-02	1.539619e+61	3.648648e+01	6.803546e+01
8110	3.533563e+11	7.031254e+28	7.962074e+34	5.511827e-01	9.021641e-02	1.426805e+61	3.632674e+01	6.772117e+01
8120	3.455755e+11	8.557273e+28	9.686564e+34	5.513846e-01	9.044485e-02	1.321325e+61	3.616563e+01	6.740420e+01
8130	3.386202e+11	1.031548e+29	1.167269e+35	5.515785e-01	9.066380e-02	1.228195e+61	3.601237e+01	6.710263e+01
8140	3.317059e+11	1.260805e+29	1.426146e+35	5.517889e-01	9.090102e-02	1.135030e+61	3.584754e+01	6.677832e+01
8150	3.251312e+11	1.548823e+29	1.751243e+35	5.520068e-01	9.114616e-02	1.046814e+61	3.567855e+01	6.644582e+01
8160	3.189008e+11	1.911395e+29	2.160319e+35	5.522320e-01	9.139946e-02	9.629228e+60	3.550530e+01	6.610500e+01
8170	3.129179e+11	2.378132e+29	2.686690e+35	5.524685e-01	9.166464e-02	8.830704e+60	3.532548e+01	6.575122e+01
8180	3.074537e+11	2.946768e+29	3.327691e+35	5.527032e-01	9.192719e-02	8.110565e+60	3.514897e+01	6.540395e+01
8190	3.020771e+11	3.704340e+29	4.181275e+35	5.529566e-01	9.221018e-02	7.403715e+60	3.496038e+01	6.503292e+01
8200	2.965289e+11	4.805232e+29	5.421046e+35	5.532485e-01	9.253555e-02	6.671409e+60	3.474566e+01	6.461049e+01
8210	2.911966e+11	6.315743e+29	7.121133e+35	5.535595e-01	9.288124e-02	5.978625e+60	3.451997e+01	6.416649e+01
8220	2.855010e+11	8.738403e+29	9.846057e+35	5.539349e-01	9.329754e-02	5.244477e+60	3.425146e+01	6.363827e+01
8230	2.794839e+11	1.283922e+30	1.445485e+36	5.543883e-01	9.379872e-02	4.487125e+60	3.393287e+01	6.301156e+01
8240	2.716202e+11	2.303678e+30	2.590257e+36	5.550958e-01	9.457700e-02	3.535222e+60	3.344806e+01	6.205787e+01
8250	2.630685e+11	4.754058e+30	5.336725e+36	5.560049e-01	9.557125e-02	2.623130e+60	3.284564e+01	6.087292e+01
8260	2.559240e+11	9.228978e+30	1.034399e+37	5.568707e-01	9.651175e-02	1.990713e+60	3.229265e+01	5.978524e+01
8270	2.494648e+11	1.750653e+31	1.959103e+37	5.577399e-01	9.744983e-02	1.519457e+60	3.175679e+01	5.873130e+01
8280	2.443198e+11	2.937635e+31	3.283131e+37	5.584684e-01	9.823155e-02	1.217449e+60	3.132178e+01	5.787575e+01
8290	2.391605e+11	4.895296e+31	5.463784e+37	5.592093e-01	9.902262e-02	9.769971e+59	3.089186e+01	5.703028e+01
8300	2.346945e+11	7.557205e+31	8.425058e+37	5.598572e-01	9.971109e-02	8.096438e+59	3.052592e+01	5.631063e+01
8310	2.306418e+11	1.113067e+32	1.239577e+38	5.604495e-01	1.003378e-01	6.842229e+59	3.019920e+01	5.566818e+01
8320	2.265802e+11	1.634380e+32	1.818191e+38	5.610511e-01	1.009719e-01	5.786320e+59	2.987475e+01	5.503020e+01
8330	2.227656e+11	2.334236e+32	2.594116e+38	5.616222e-01	1.015713e-01	4.951121e+59	2.957357e+01	5.443796e+01
8340	2.191106e+11	3.270968e+32	3.631567e+38	5.621746e-01	1.021493e-01	4.268952e+59	2.928809e+01	5.387667e+01
8350	2.152648e+11	4.645390e+32	5.152130e+38	5.627615e-01	1.027610e-01	3.657699e+59	2.899111e+01	5.329275e+01
8360	2.120260e+11	6.221700e+32	6.894278e+38	5.632605e-01	1.032792e-01	3.214648e+59	2.874356e+01	5.280604e+01
8370	2.081864e+11	8.765062e+32	9.702292e+38	5.638579e-01	1.038974e-01	2.762022e+59	2.845305e+01	5.223487e+01
8380	2.047361e+11	1.188529e+33	1.314352e+39	5.643999e-01	1.044566e-01	2.412034e+59	2.819456e+01	5.172674e+01
8390	2.013710e+11	1.594492e+33	1.761628e+39	5.649333e-01	1.050050e-01	2.115957e+59	2.794507e+01	5.123627e+01
8400	1.976796e+11	2.193233e+33	2.420599e+39	5.655238e-01	1.056102e-01	1.834718e+59	2.767410e+01	5.070362e+01
8410	1.941871e+11	2.956733e+33	3.259992e+39	5.660888e-01	1.061868e-01	1.605084e+59	2.742023e+01	5.020456e+01
8420	1.904751e+11	4.047376e+33	4.457724e+39	5.666949e-01	1.068038e-01	1.393752e+59	2.715305e+01	4.967938e+01
8430	1.867335e+11	5.537472e+33	6.092248e+39	5.673132e-01	1.074306e-01	1.210189e+59	2.688620e+01	4.915486e+01
8440	1.833471e+11	7.330940e+33	8.057375e+39	5.678780e-01	1.080015e-01	1.066033e+59	2.664715e+01	4.868501e+01
8450	1.794538e+11	1.008645e+34	1.107314e+40	5.685340e-01	1.086623e-01	9.224429e+58	2.637507e+01	4.815028e+01
8460	1.754473e+11	1.395945e+34	1.530662e+40	5.692174e-01	1.093479e-01	7.958307e+58	2.609787e+01	4.760550e+01
8470	1.714737e+11	1.919695e+34	2.102424e+40	5.699029e-01	1.100331e-01	6.883403e+58	2.582596e+01	4.707111e+01
8480	1.676353e+11	2.602859e+34	2.847269e+40	5.705728e-01	1.107002e-01	5.989747e+58	2.556594e+01	4.656013e+01
8490	1.636929e+11	3.545804e+34	3.874034e+40	5.712685e-01	1.113906e-01	5.198417e+58	2.530168e+01	4.604083e+01
8500	1.604020e+11	4.578247e+34	4.996912e+40	5.718557e-01	1.119713e-01	4.622398e+58	2.508309e+01	4.561132e+01
8510	1.568572e+11	6.015224e+34	6.557961e+40	5.724954e-01	1.126019e-01	4.076479e+58	2.484952e+01	4.515236e+01
8520	1.529436e+11	8.106300e+34	8.826695e+40	5.732097e-01	1.133036e-01	3.552024e+58	2.459408e+01	4.465047e+01
8530	1.492241e+11	1.073253e+35	1.167233e+41	5.738966e-01	1.139759e-01	3.119553e+58	2.435370e+01	4.417817e+01
8540	1.452900e+11	1.439931e+35	1.564015e+41	5.746320e-01	1.146936e-01	2.721096e+58	2.410159e+01	4.368291e+01
8550	1.415181e+11	1.903468e+35	2.064931e+41	5.753461e-01	1.153877e-01	2.389671e+58	2.386220e+01	4.321261e+01
8560	1.379738e+11	2.466616e+35	2.672701e+41	5.760235e-01	1.160439e-01	2.117403e+58	2.363974e+01	4.277558e+01
8570	1.341210e+11	3.261123e+35	3.529020e+41	5.767692e-01	1.167638e-01	1.857952e+58	2.339989e+01	4.230442e+01
8580	1.304331e+11	4.249406e+35	4.592734e+41	5.774918e-01	1.174589e-01	1.640979e+58	2.317241e+01	4.185759e+01
8590	1.271045e+11	5.384767e+35	5.813186e+41	5.781515e-01	1.180917e-01	1.467818e+58	2.296871e+01	4.145750e+01
8600	1.234291e+11	6.976103e+35	7.521550e+41	5.788879e-01	1.187954e-01	1.299098e+58	2.274595e+01	4.101994e+01
8610	1.196912e+11	9.052280e+35	9.747310e+41	5.796451e-01	1.195168e-01	1.148334e+58	2.252156e+01	4.057924e+01
8620	1.158902e+11	1.176196e+36	1.264806e+42	5.804233e-01	1.202557e-01	1.014002e+58	2.229584e+01	4.013595e+01
8630	1.120299e+11	1.529763e+36	1.642748e+42	5.812221e-01	1.210116e-01	8.945511e+57	2.206907e+01	3.969063e+01
8640	1.089905e+11	1.877072e+36	2.013510e+42	5.818569e-01	1.216101e-01	8.112398e+57	2.189248e+01	3.934383e+01
8650	1.051047e+11	2.431480e+36	2.604547e+42	5.826764e-01	1.223806e-01	7.165060e+57	2.166887e+01	3.890473e+01
8660	1.010241e+11	3.180761e+36	3.402076e+42	5.835473e-01	1.231963e-01	6.295855e+57	2.143658e+01	3.844860e+01
8670	9.702524e+10	4.127280e+36	4.407919e+42	5.844122e-01	1.240036e-01	5.551180e+57	2.121111e+01	3.800590e+01
8680	9.234738e+10	5.584756e+36	5.954002e+42	5.854424e-01	1.249614e-01	4.793547e+57	2.094909e+01	3.749146e+01
8690	8.749317e+10	7.633263e+36	8.122759e+42	5.865373e-01	1.259747e-01	4.117655e+57	2.067826e+01	3.695972e+01
8700	8.257543e+10	1.047298e+37	1.112295e+43	5.876782e-01	1.270261e-01	3.528644e+57	2.040392e+01	3.642116e+01
8710	7.811067e+10	1.395987e+37	1.479937e+43	5.887445e-01	1.280044e-01	3.065890e+57	2.015457e+01	3.593167e+01
8720	7.305424e+10	1.933611e+37	2.045569e+43	5.899891e-01	1.291410e-01	2.613144e+57	1.987178e+01	3.537655e+01
8730	7.009024e+10	2.340148e+37	2.472513e+43	5.907365e-01	1.298210e-01	2.379172e+57	1.970608e+01	3.505130e+01
8740	6.547285e+10	3.151139e+37	3.322662e+43	5.919301e-01	1.309029e-01	2.054661e+57	1.944758e+01	3.454392e+01
8750	6.150502e+10	4.069717e+37	4.283606e+43	5.929849e-01	1.318549e-01	1.810818e+57	1.922530e+01	3.410761e+01
8760	5.770203e+10	5.202201e+37	5.466040e+43	5.940231e-01	1.327881e-01	1.603632e+57	1.901190e+01	3.368877e+01
8770	5.415308e+10	6.546513e+37	6.867022e+43	5.950187e-01	1.336799e-01	1.430829e+57	1.881204e+01	3.329651e+01
8780	4.702307e+10	1.044408e+38	1.091693e+44	5.971159e-01	1.355472e-01	1.134586e+57	1.840600e+01	3.249955e+01
8790	4.580825e+10	1.131539e+38	1.182036e+44	5.974860e-01	1.358753e-01	1.090244e+57	1.833634e+01	3.236283e+01
8800	3.790949e+10	1.935352e+38	2.013100e+44	6.000449e-01	1.381314e-01	8.353353e+56	1.787046e+01	3.144841e+01
8810	3.658092e+10	2.123791e+38	2.207424e+44	6.005025e-01	1.385327e-01	7.977833e+56	1.778993e+01	3.129034e+01
8820	3.554743e+10	2.284567e+38	2.373100e+44	6.008651e-01	1.388500e-01	7.695222e+56	1.772673e+01	3.116627e+01
8830	3.252619e+10	2.843552e+38	2.948330e+44	6.019689e-01	1.398141e-01	6.907127e+56	1.753729e+01	3.079443e+01
8840	3.149161e+10	3.070344e+38	3.181402e+44	6.023618e-01	1.401564e-01	6.650910e+56	1.747094e+01	3.066419e+01
8850	2.928625e+10	3.632846e+38	3.758807e+44	6.032342e-01	1.409146e-01	6.123442e+56	1.732567e+01	3.037903e+01
8860	2.587848e+10	4.780690e+38	4.934531e+44	6.046912e-01	1.421757e-01	5.354324e+56	1.708908e+01	2.991457e+01
8870	2.037178e+10	7.881047e+38	8.097647e+44	6.074550e-01	1.445511e-01	4.201001e+56	1.665978e+01	2.907176e+01
8880	1.228811e+10	2.124749e+39	2.161882e+45	6.134293e-01	1.496174e-01	2.597022e+56	1.580990e+01	2.740316e+01
8890	9.135062e+09	3.727679e+39	3.769741e+45	6.171859e-01	1.527603e-01	1.957488e+56	1.532340e+01	2.644812e+01
8900	8.745271e+09	3.909278e+39	3.951136e+45	6.175379e-01	1.530517e-01	1.903088e+56	1.527987e+01	2.636254e+01
8910	8.308914e+09	4.169241e+39	4.210669e+45	6.180092e-01	1.534421e-01	1.834850e+56	1.522187e+01	2.624859e+01
8920	7.926771e+09	4.456555e+39	4.497303e+45	6.184949e-01	1.538447e-01	1.768718e+56	1.516245e+01	2.613190e+01
8930	7.743237e+09	4.614917e+39	4.655193e+45	6.187500e-01	1.540562e-01	1.735300e+56	1.513141e+01	2.607096e+01
8940	7.493964e+09	4.854173e+39	4.893610e+45	6.191201e-01	1.543628e-01	1.688408e+56	1.508660e+01	2.598300e+01
8950	7.245516e+09	5.124450e+39	5.162757e+45	6.195190e-01	1.546932e-01	1.639660e+56	1.503861e+01	2.588881e+01
8960	7.066539e+09	5.336845e+39	5.374130e+45	6.198198e-01	1.549423e-01	1.603984e+56	1.500262e+01	2.581818e+01
8970	6.848892e+09	5.620286e+39	5.656033e+45	6.202053e-01	1.552612e-01	1.559645e+56	1.495677e+01	2.572820e+01
8980	6.639266e+09	5.922196e+39	5.956090e+45	6.205981e-01	1.555862e-01	1.515843e+56	1.491032e+01	2.563708e+01
8990	6.454064e+09	6.214753e+39	6.246650e+45	6.209629e-01	1.558877e-01	1.476419e+56	1.486747e+01	2.555301e+01
9000	4.366118e+09	1.250664e+40	1.245635e+46	6.266696e-01	1.605862e-01	9.767652e+55	1.422863e+01	2.430089e+01
9010	1.524316e+09	5.882536e+40	5.723430e+46	6.415008e-01	1.725181e-01	3.954855e+55	1.282691e+01	2.155400e+01
9020	5.391099e+08	2.348402e+41	2.234391e+47	6.559976e-01	1.837670e-01	2.329452e+55	1.174294e+01	1.942528e+01
9030	2.761017e+08	7.948088e+41	7.386203e+47	6.716304e-01	1.956351e-01	1.438781e+55	1.078602e+01	1.754837e+01
9040	2.240971e+08	1.451199e+42	1.330338e+48	6.808540e-01	2.025359e-01	1.103154e+55	1.030066e+01	1.659777e+01
9050	2.080021e+08	1.853584e+42	1.689136e+48	6.849148e-01	2.055547e-01	9.876163e+54	1.010244e+01	1.620996e+01
9060	1.980717e+08	2.133462e+42	1.937383e+48	6.873191e-01	2.073394e-01	9.271784e+54	9.988875e+00	1.598803e+01
9070	1.850095e+08	2.457983e+42	2.223862e+48	6.898586e-01	2.092291e-01	8.649260e+54	9.871162e+00	1.575854e+01
9080	1.762099e+08	2.559188e+42	2.312511e+48	6.907283e-01	2.098856e-01	8.375270e+54	9.830519e+00	1.567986e+01
9090	1.690157e+08	2.569205e+42	2.320520e+48	6.910387e-01	2.101286e-01	8.183942e+54	9.815199e+00	1.565064e+01
9100	1.625733e+08	2.538188e+42	2.292179e+48	6.911369e-01	2.102136e-01	8.006892e+54	9.809519e+00	1.564020e+01
9110	1.565367e+08	2.492199e+42	2.250500e+48	6.911826e-01	2.102586e-01	7.820225e+54	9.806325e+00	1.563454e+01
9120	1.507523e+08	2.443596e+42	2.206411e+48	6.912451e-01	2.103153e-01	7.617701e+54	9.802457e+00	1.562754e+01
9130	1.451357e+08	2.402795e+42	2.169123e+48	6.913875e-01	2.104304e-01	7.394698e+54	9.795083e+00	1.561365e+01
9140	1.396695e+08	2.373374e+42	2.141819e+48	6.916279e-01	2.106179e-01	7.154649e+54	9.783372e+00	1.559129e+01
9150	1.343600e+08	2.355197e+42	2.124389e+48	6.919616e-01	2.108742e-01	6.903292e+54	9.767552e+00	1.556091e+01
9160	1.292105e+08	2.348896e+42	2.117406e+48	6.923866e-01	2.111980e-01	6.646454e+54	9.747753e+00	1.552276e+01
9170	1.242048e+08	2.361327e+42	2.126859e+48	6.929573e-01	2.116302e-01	6.376611e+54	9.721556e+00	1.547217e+01
9180	1.194438e+08	2.379823e+42	2.141611e+48	6.935745e-01	2.120969e-01	6.112113e+54	9.693443e+00	1.541787e+01
9190	1.149160e+08	2.404951e+42	2.162157e+48	6.942375e-01	2.125977e-01	5.854926e+54	9.663482e+00	1.535999e+01
9200	1.106212e+08	2.433809e+42	2.185938e+48	6.949244e-01	2.131163e-01	5.607853e+54	9.632662e+00	1.530046e+01
9210	1.065455e+08	2.467850e+42	2.214227e+48	6.956418e-01	2.136577e-01	5.370699e+54	9.600694e+00	1.523873e+01
9220	1.026824e+08	2.505481e+42	2.245613e+48	6.963782e-01	2.142133e-01	5.144295e+54	9.568117e+00	1.517583e+01
9230	9.902182e+07	2.547222e+42	2.280548e+48	6.971345e-01	2.147838e-01	4.928572e+54	9.534896e+00	1.511171e+01
9240	9.555425e+07	2.592247e+42	2.318298e+48	6.979049e-01	2.153650e-01	4.723274e+54	9.501281e+00	1.504687e+01
9250	9.226940e+07	2.641592e+42	2.359762e+48	6.986933e-01	2.159597e-01	4.528198e+54	9.467131e+00	1.498101e+01
9260	8.915993e+07	2.692842e+42	2.402816e+48	6.994865e-01	2.165583e-01	4.342856e+54	9.432995e+00	1.491522e+01
9270	8.621286e+07	2.747620e+42	2.448887e+48	7.002884e-01	2.171634e-01	4.168033e+54	9.398742e+00	1.484923e+01
9280	8.340658e+07	2.809908e+42	2.501395e+48	7.011304e-01	2.177987e-01	3.998979e+54	9.363040e+00	1.478047e+01
9290	8.076222e+07	2.873307e+42	2.554779e+48	7.019684e-01	2.184314e-01	3.839094e+54	9.327728e+00	1.471253e+01
9300	7.826695e+07	2.938795e+42	2.609894e+48	7.028059e-01	2.190644e-01	3.688006e+54	9.292649e+00	1.464508e+01
9310	7.591079e+07	3.003640e+42	2.664355e+48	7.036309e-01	2.196887e-01	3.544871e+54	9.258271e+00	1.457905e+01
9320	7.368010e+07	3.070871e+42	2.720795e+48	7.044575e-01	2.203152e-01	3.409062e+54	9.223997e+00	1.451329e+01
9330	7.156660e+07	3.137826e+42	2.776892e+48	7.052755e-01	2.209362e-01	3.279645e+54	9.190224e+00	1.444857e+01
9340	6.956244e+07	3.206325e+42	2.834229e+48	7.060924e-01	2.215580e-01	3.156182e+54	9.156594e+00	1.438423e+01
9350	6.765885e+07	3.275332e+42	2.891894e+48	7.069065e-01	2.221798e-01	3.037566e+54	9.123133e+00	1.432033e+01
9360	6.584642e+07	3.345415e+42	2.950358e+48	7.077245e-01	2.228073e-01	2.922404e+54	9.089496e+00	1.425625e+01
9370	6.412073e+07	3.415070e+42	3.008294e+48	7.085464e-01	2.234432e-01	2.808585e+54	9.055473e+00	1.419169e+01
9380	6.247229e+07	3.484542e+42	3.065832e+48	7.093922e-01	2.241069e-01	2.691273e+54	9.019880e+00	1.412460e+01
9390	6.089372e+07	3.551595e+42	3.120841e+48	7.102983e-01	2.248388e-01	2.559302e+54	8.980198e+00	1.405071e+01
9400	5.936569e+07	3.613175e+42	3.170126e+48	7.113796e-01	2.257576e-01	2.385405e+54	8.929284e+00	1.395779e+01
9410	5.868236e+07	3.629233e+42	3.181566e+48	7.119720e-01	2.262904e-01	2.276525e+54	8.899049e+00	1.390371e+01
9420	5.818317e+07	3.635005e+42	3.184273e+48	7.124981e-01	2.267786e-01	2.175489e+54	8.871047e+00	1.385414e+01
9430	5.747555e+07	3.633368e+42	3.178522e+48	7.134658e-01	2.276971e-01	1.990954e+54	8.818188e+00	1.376126e+01
9440	5.697599e+07	3.622220e+42	3.164694e+48	7.143844e-01	2.285807e-01	1.824480e+54	8.767531e+00	1.367265e+01
9450	5.658192e+07	3.607457e+42	3.147805e+48	7.152904e-01	2.294517e-01	1.673659e+54	8.718115e+00	1.358625e+01
9460	5.625875e+07	3.591011e+42	3.129624e+48	7.161658e-01	2.302884e-01	1.540907e+54	8.671256e+00	1.350421e+01
9470	5.598651e+07	3.573272e+42	3.110568e+48	7.169938e-01	2.310735e-01	1.426162e+54	8.627873e+00	1.342811e+01
9480	5.574636e+07	3.556393e+42	3.092495e+48	7.177773e-01	2.318090e-01	1.327313e+54	8.587796e+00	1.335762e+01
9490	5.552800e+07	3.539993e+42	3.075053e+48	7.185198e-01	2.324987e-01	1.241466e+54	8.550726e+00	1.329222e+01
9500	5.532468e+07	3.524814e+42	3.058867e+48	7.192247e-01	2.331462e-01	1.166696e+54	8.516398e+00	1.323147e+01
9510	5.513257e+07	3.510136e+42	3.043299e+48	7.198937e-01	2.337543e-01	1.101010e+54	8.484567e+00	1.317495e+01
9520	5.494816e+07	3.496601e+42	3.028904e+48	7.205258e-01	2.343228e-01	1.043485e+54	8.455180e+00	1.312261e+01
9530	5.476916e+07	3.484013e+42	3.015494e+48	7.211244e-01	2.348556e-01	9.927370e+53	8.427974e+00	1.307399e+01
9540	5.459380e+07	3.472351e+42	3.003048e+48	7.216894e-01	2.353537e-01	9.478961e+53	8.402833e+00	1.302892e+01
9550	5.442065e+07	3.461626e+42	2.991566e+48	7.222218e-01	2.358183e-01	9.082139e+53	8.379637e+00	1.298720e+01
9560	5.424901e+07	3.451756e+42	2.980961e+48	7.227244e-01	2.362531e-01	8.728668e+53	8.358159e+00	1.294845e+01
9570	5.407787e+07	3.442804e+42	2.971280e+48	7.231988e-01	2.366598e-01	8.413180e+53	8.338268e+00	1.291245e+01
9580	5.390631e+07	3.434859e+42	2.962588e+48	7.236466e-01	2.370404e-01	8.131073e+53	8.319838e+00	1.287899e+01
9590	5.373348e+07	3.428030e+42	2.954971e+48	7.240697e-01	2.373971e-01	7.878173e+53	8.302724e+00	1.284783e+01
9600	5.356036e+07	3.421990e+42	2.948147e+48	7.244668e-01	2.377291e-01	7.651775e+53	8.286933e+00	1.281899e+01
9610	5.338517e+07	3.416811e+42	2.942159e+48	7.248429e-01	2.380413e-01	7.447003e+53	8.272206e+00	1.279202e+01
9620	5.320645e+07	3.413100e+42	2.937522e+48	7.251985e-01	2.383345e-01	7.263098e+53	8.258488e+00	1.276683e+01
9630	5.302822e+07	3.409695e+42	2.933236e+48	7.255335e-01	2.386088e-01	7.096085e+53	8.245749e+00	1.274338e+01
9640	5.284511e+07	3.407801e+42	2.930320e+48	7.258521e-01	2.388682e-01	6.945072e+53	8.233784e+00	1.272130e+01
9650	5.266146e+07	3.406447e+42	2.927946e+48	7.261518e-01	2.391107e-01	6.808254e+53	8.222677e+00	1.270076e+01
9660	5.247204e+07	3.406712e+42	2.927023e+48	7.264375e-01	2.393408e-01	6.684437e+53	8.212195e+00	1.268133e+01
9670	5.228358e+07	3.407093e+42	2.926265e+48	7.267069e-01	2.395566e-01	6.571107e+53	8.202428e+00	1.266319e+01
9680	5.208843e+07	3.409393e+42	2.927219e+48	7.269604e-01	2.397587e-01	6.470785e+53	8.193331e+00	1.264626e+01
9690	5.189154e+07	3.412178e+42	2.928624e+48	7.272052e-01	2.399533e-01	6.376995e+53	8.184608e+00	1.263001e+01
9700	5.169297e+07	3.415763e+42	2.930775e+48	7.274350e-01	2.401352e-01	6.292623e+53	8.176490e+00	1.261486e+01
9710	5.148779e+07	3.421109e+42	2.934491e+48	7.276510e-01	2.403057e-01	6.218429e+53	8.168916e+00	1.260070e+01
9720	5.127607e+07	3.427980e+42	2.939550e+48	7.278577e-01	2.404687e-01	6.151648e+53	8.161694e+00	1.258721e+01
