step    timeBC [s]      Q [erg/s]       R [1/s]         Eavg [MeV]      Sigma [MeV]     a               alpha           b             

5070	1.404286e+12	8.220337e+24	9.418450e+30	5.447524e-01	8.269127e-02	4.890778e+61	4.239892e+01	7.966724e+01
5080	1.347769e+12	1.053226e+25	1.206333e+31	5.449334e-01	8.290815e-02	4.480924e+61	4.220085e+01	7.927731e+01
5090	1.291484e+12	1.384498e+25	1.585174e+31	5.451354e-01	8.314990e-02	4.065453e+61	4.198187e+01	7.884622e+01
5100	1.240382e+12	1.801207e+25	2.061539e+31	5.453320e-01	8.338480e-02	3.700210e+61	4.177088e+01	7.843090e+01
5110	1.193701e+12	2.333298e+25	2.669577e+31	5.455277e-01	8.361784e-02	3.372847e+61	4.156333e+01	7.802232e+01
5120	1.150531e+12	3.021613e+25	3.455840e+31	5.457253e-01	8.385300e-02	3.072533e+61	4.135561e+01	7.761343e+01
5130	1.110615e+12	3.913273e+25	4.474000e+31	5.459253e-01	8.409050e-02	2.797608e+61	4.114757e+01	7.720392e+01
5140	1.073667e+12	5.074502e+25	5.799459e+31	5.461286e-01	8.433151e-02	2.544866e+61	4.093822e+01	7.679185e+01
5150	1.037955e+12	6.685912e+25	7.638025e+31	5.463470e-01	8.458981e-02	2.300648e+61	4.071584e+01	7.635411e+01
5160	1.006531e+12	8.676392e+25	9.908172e+31	5.465559e-01	8.483616e-02	2.091237e+61	4.050565e+01	7.594035e+01
5170	9.789314e+11	1.109767e+26	1.266857e+32	5.467555e-01	8.507133e-02	1.909403e+61	4.030663e+01	7.554864e+01
5180	9.518934e+11	1.447268e+26	1.651474e+32	5.469733e-01	8.532709e-02	1.731343e+61	4.009211e+01	7.512636e+01
5190	9.264237e+11	1.901193e+26	2.168549e+32	5.471999e-01	8.559297e-02	1.563966e+61	3.987106e+01	7.469128e+01
5200	9.032619e+11	2.491993e+26	2.841248e+32	5.474276e-01	8.585924e-02	1.413756e+61	3.965174e+01	7.425959e+01
5210	8.817187e+11	3.282335e+26	3.740753e+32	5.476622e-01	8.613318e-02	1.275056e+61	3.942822e+01	7.381962e+01
5220	8.616099e+11	4.352657e+26	4.958353e+32	5.479058e-01	8.641714e-02	1.146068e+61	3.919870e+01	7.336790e+01
5230	8.438230e+11	5.712910e+26	6.505070e+32	5.481437e-01	8.669334e-02	1.034268e+61	3.897766e+01	7.293281e+01
5240	8.262480e+11	7.691214e+26	8.753479e+32	5.484073e-01	8.699900e-02	9.236188e+60	3.873543e+01	7.245606e+01
5250	8.096255e+11	1.050441e+27	1.194910e+33	5.486877e-01	8.732343e-02	8.196911e+60	3.848107e+01	7.195544e+01
5260	7.946743e+11	1.430355e+27	1.626240e+33	5.489696e-01	8.764878e-02	7.278120e+60	3.822878e+01	7.145893e+01
5270	7.795126e+11	2.032520e+27	2.309497e+33	5.492957e-01	8.802380e-02	6.354679e+60	3.794146e+01	7.089344e+01
5280	7.652981e+11	2.939554e+27	3.338018e+33	5.496443e-01	8.842363e-02	5.504518e+60	3.763908e+01	7.029834e+01
5290	7.511766e+11	4.448406e+27	5.047732e+33	5.500436e-01	8.887977e-02	4.680434e+60	3.729908e+01	6.962917e+01
5300	7.373545e+11	7.059005e+27	8.003434e+33	5.504984e-01	8.939795e-02	3.899025e+60	3.691902e+01	6.888125e+01
5310	7.223248e+11	1.264060e+28	1.431645e+34	5.510882e-01	9.006631e-02	3.090368e+60	3.643842e+01	6.793544e+01
5320	7.033860e+11	3.041015e+28	3.438422e+34	5.520118e-01	9.110663e-02	2.164888e+60	3.571105e+01	6.650410e+01
5330	6.865667e+11	7.449558e+28	8.408013e+34	5.530012e-01	9.221158e-02	1.495769e+60	3.496510e+01	6.503620e+01
5340	6.689618e+11	2.044285e+29	2.302386e+35	5.541818e-01	9.351833e-02	9.721666e+59	3.411649e+01	6.336636e+01
5350	6.544711e+11	4.618323e+29	5.191998e+35	5.551863e-01	9.462048e-02	6.819442e+59	3.342764e+01	6.201096e+01
5360	6.448970e+11	7.835724e+29	8.798340e+35	5.558625e-01	9.535730e-02	5.412304e+59	3.298027e+01	6.113072e+01
5370	6.323472e+11	1.546755e+30	1.733967e+36	5.567620e-01	9.633173e-02	4.015112e+59	3.240415e+01	5.999718e+01
5380	6.225046e+11	2.607604e+30	2.919469e+36	5.574768e-01	9.710147e-02	3.188609e+59	3.196112e+01	5.912555e+01
5390	6.112854e+11	4.670198e+30	5.221031e+36	5.583005e-01	9.798319e-02	2.463011e+59	3.146631e+01	5.815203e+01
5400	6.017647e+11	7.560739e+30	8.441874e+36	5.590033e-01	9.873156e-02	1.986936e+59	3.105655e+01	5.734590e+01
5410	5.903596e+11	1.324551e+31	1.476685e+37	5.598477e-01	9.962581e-02	1.544969e+59	3.057883e+01	5.640611e+01
5420	5.793257e+11	2.239406e+31	2.492975e+37	5.606657e-01	1.004870e-01	1.218780e+59	3.013063e+01	5.552441e+01
5430	5.683453e+11	3.695959e+31	4.108540e+37	5.614726e-01	1.013319e-01	9.699336e+58	2.970188e+01	5.468099e+01
5440	5.576799e+11	5.869351e+31	6.515618e+37	5.622422e-01	1.021331e-01	7.839367e+58	2.930498e+01	5.390023e+01
5450	5.469955e+11	9.087718e+31	1.007490e+38	5.629931e-01	1.029110e-01	6.393334e+58	2.892834e+01	5.315934e+01
5460	5.336371e+11	1.512739e+32	1.674370e+38	5.638995e-01	1.038446e-01	5.022664e+58	2.848733e+01	5.229182e+01
5470	5.247766e+11	2.080942e+32	2.300896e+38	5.644845e-01	1.044444e-01	4.309509e+58	2.821016e+01	5.174660e+01
5480	5.128148e+11	3.153874e+32	3.482402e+38	5.652680e-01	1.052437e-01	3.524765e+58	2.784806e+01	5.103432e+01
5490	5.049898e+11	4.113207e+32	4.537550e+38	5.657807e-01	1.057648e-01	3.097404e+58	2.761634e+01	5.057850e+01
5500	5.004426e+11	4.790778e+32	5.282234e+38	5.660794e-01	1.060678e-01	2.874938e+58	2.748311e+01	5.031645e+01
5510	4.934237e+11	6.048423e+32	6.663441e+38	5.665426e-01	1.065361e-01	2.565397e+58	2.727950e+01	4.991593e+01
5520	4.857100e+11	7.779364e+32	8.562696e+38	5.670516e-01	1.070494e-01	2.267030e+58	2.705932e+01	4.948283e+01
5530	4.658372e+11	1.440216e+33	1.581639e+39	5.683411e-01	1.083422e-01	1.668615e+58	2.651838e+01	4.841878e+01
5540	4.307998e+11	3.666028e+33	4.011211e+39	5.704391e-01	1.104226e-01	1.028382e+58	2.568717e+01	4.678355e+01
5550	3.684026e+11	1.310050e+34	1.425377e+40	5.736500e-01	1.135519e-01	5.016187e+57	2.452144e+01	4.448957e+01
5560	2.601376e+11	1.168620e+35	1.257481e+41	5.800438e-01	1.196122e-01	1.445891e+57	2.251638e+01	4.054242e+01
5570	2.058698e+11	4.085554e+35	4.364602e+41	5.842454e-01	1.234840e-01	7.262466e+56	2.138562e+01	3.831544e+01
5580	1.980356e+11	4.954878e+35	5.287070e+41	5.849340e-01	1.241106e-01	6.540984e+56	2.121242e+01	3.797423e+01
5590	1.893624e+11	6.168234e+35	6.572832e+41	5.857298e-01	1.248321e-01	5.811928e+56	2.101619e+01	3.758762e+01
5600	1.817360e+11	7.515072e+35	7.998036e+41	5.864605e-01	1.254921e-01	5.226973e+56	2.083960e+01	3.723968e+01
5610	1.750895e+11	8.964519e+35	9.529852e+41	5.871239e-01	1.260893e-01	4.756489e+56	2.068220e+01	3.692951e+01
5620	1.688226e+11	1.062827e+36	1.128603e+42	5.877742e-01	1.266727e-01	4.344274e+56	2.053054e+01	3.663064e+01
5630	1.616859e+11	1.297132e+36	1.375598e+42	5.885479e-01	1.273643e-01	3.909065e+56	2.035344e+01	3.628157e+01
5640	1.571946e+11	1.474221e+36	1.562060e+42	5.890524e-01	1.278141e-01	3.653360e+56	2.023980e+01	3.605757e+01
5650	1.512023e+11	1.756014e+36	1.858437e+42	5.897515e-01	1.284354e-01	3.332026e+56	2.008476e+01	3.575194e+01
5660	1.464832e+11	2.022229e+36	2.138104e+42	5.903240e-01	1.289425e-01	3.094429e+56	1.995987e+01	3.550571e+01
5670	1.414723e+11	2.357504e+36	2.489930e+42	5.909546e-01	1.294997e-01	2.855981e+56	1.982431e+01	3.523842e+01
5680	1.354318e+11	2.851836e+36	3.007982e+42	5.917500e-01	1.302000e-01	2.586536e+56	1.965639e+01	3.490729e+01
5690	1.292666e+11	3.486687e+36	3.672285e+42	5.926054e-01	1.309504e-01	2.330599e+56	1.947942e+01	3.455828e+01
5700	1.236026e+11	4.221683e+36	4.440189e+42	5.934349e-01	1.316753e-01	2.111393e+56	1.931130e+01	3.422666e+01
5710	1.167437e+11	5.374175e+36	5.642169e+42	5.945039e-01	1.326054e-01	1.865029e+56	1.909959e+01	3.380901e+01
5720	1.107147e+11	6.709995e+36	7.032704e+42	5.955097e-01	1.334765e-01	1.664744e+56	1.890527e+01	3.342561e+01
5730	1.034184e+11	8.909373e+36	9.317246e+42	5.968271e-01	1.346118e-01	1.440752e+56	1.865760e+01	3.293684e+01
5740	9.730657e+10	1.146130e+37	1.196189e+43	5.980300e-01	1.356427e-01	1.267923e+56	1.843806e+01	3.250350e+01
5750	8.928896e+10	1.634989e+37	1.701417e+43	5.997814e-01	1.371352e-01	1.059123e+56	1.812882e+01	3.189299e+01
5760	8.309118e+10	2.200791e+37	2.284425e+43	6.012994e-01	1.384205e-01	9.111962e+55	1.787039e+01	3.138269e+01
5770	7.302397e+10	3.784869e+37	3.909790e+43	6.042078e-01	1.408630e-01	6.911960e+55	1.739835e+01	3.045038e+01
5780	6.687406e+10	5.504793e+37	5.666518e+43	6.063365e-01	1.426355e-01	5.690632e+55	1.707059e+01	2.980291e+01
5790	5.868205e+10	9.773310e+37	1.000251e+44	6.098482e-01	1.455348e-01	4.154737e+55	1.655940e+01	2.879307e+01
5800	5.152001e+10	1.764355e+38	1.793469e+44	6.140179e-01	1.489508e-01	2.800136e+55	1.599325e+01	2.767549e+01
5810	4.752182e+10	2.615134e+38	2.641834e+44	6.178421e-01	1.521178e-01	1.751944e+55	1.549661e+01	2.670037e+01
5820	4.480603e+10	3.657150e+38	3.668296e+44	6.222536e-01	1.558050e-01	9.505541e+54	1.495042e+01	2.563331e+01
5830	4.310476e+10	4.556895e+38	4.549265e+44	6.251968e-01	1.582397e-01	6.557474e+54	1.460998e+01	2.496811e+01
5840	4.152572e+10	5.446488e+38	5.419134e+44	6.273006e-01	1.599658e-01	5.234500e+54	1.437791e+01	2.451441e+01
5850	4.015024e+10	6.172110e+38	6.129061e+44	6.285339e-01	1.609767e-01	4.708451e+54	1.424513e+01	2.425507e+01
5860	3.859910e+10	6.914433e+38	6.856120e+44	6.294585e-01	1.617381e-01	4.442975e+54	1.414640e+01	2.406258e+01
5870	3.683598e+10	7.686466e+38	7.612923e+44	6.301795e-01	1.623356e-01	4.322485e+54	1.406958e+01	2.391315e+01
5880	3.487465e+10	8.550284e+38	8.459421e+44	6.308540e-01	1.628940e-01	4.249938e+54	1.399848e+01	2.377489e+01
5890	3.260827e+10	9.652153e+38	9.537592e+44	6.316470e-01	1.635439e-01	4.163213e+54	1.391696e+01	2.361597e+01
5900	3.062214e+10	1.071229e+39	1.057320e+45	6.323603e-01	1.641236e-01	4.077603e+54	1.384524e+01	2.347592e+01
5910	2.807539e+10	1.236685e+39	1.218569e+45	6.334294e-01	1.649833e-01	3.921402e+54	1.374065e+01	2.327117e+01
5920	2.606022e+10	1.396067e+39	1.373549e+45	6.343826e-01	1.657450e-01	3.774135e+54	1.364945e+01	2.309246e+01
5930	2.409054e+10	1.598843e+39	1.570156e+45	6.355535e-01	1.666715e-01	3.571279e+54	1.354057e+01	2.287859e+01
5940	2.235324e+10	1.830283e+39	1.793906e+45	6.368065e-01	1.676556e-01	3.349617e+54	1.342708e+01	2.265537e+01
5950	2.093292e+10	2.070623e+39	2.025617e+45	6.380176e-01	1.686009e-01	3.139465e+54	1.332008e+01	2.244464e+01
5960	1.963340e+10	2.352172e+39	2.296283e+45	6.393413e-01	1.696280e-01	2.917046e+54	1.320596e+01	2.221967e+01
5970	1.847967e+10	2.670873e+39	2.601746e+45	6.407335e-01	1.707018e-01	2.694734e+54	1.308896e+01	2.198879e+01
5980	1.758634e+10	2.980763e+39	2.897937e+45	6.419888e-01	1.716653e-01	2.506983e+54	1.298589e+01	2.178526e+01
5990	1.672148e+10	3.367978e+39	3.266827e+45	6.434755e-01	1.727986e-01	2.295565e+54	1.286704e+01	2.155022e+01
6000	1.599329e+10	3.774372e+39	3.652550e+45	6.449672e-01	1.739235e-01	2.096843e+54	1.275177e+01	2.132166e+01
6010	1.533979e+10	4.161843e+39	4.019295e+45	6.462860e-01	1.748887e-01	1.948440e+54	1.265608e+01	2.113008e+01
6020	1.415025e+10	4.580879e+39	4.424552e+45	6.462023e-01	1.745275e-01	2.323331e+54	1.270911e+01	2.121488e+01
6030	1.226788e+10	5.941636e+39	5.738341e+45	6.462621e-01	1.742599e-01	3.214163e+54	1.275379e+01	2.128205e+01
6040	1.147588e+10	6.166609e+39	5.973077e+45	6.443728e-01	1.728177e-01	4.339120e+54	1.290266e+01	2.157549e+01
6050	1.095918e+10	5.994297e+39	5.824219e+45	6.423763e-01	1.714060e-01	5.453821e+54	1.304517e+01	2.186439e+01
6060	1.046041e+10	5.785827e+39	5.635387e+45	6.408120e-01	1.703799e-01	6.337487e+54	1.314570e+01	2.207465e+01
6070	9.904214e+09	5.644599e+39	5.506806e+45	6.397677e-01	1.697675e-01	6.884296e+54	1.320154e+01	2.219796e+01
6080	9.194375e+09	5.656964e+39	5.523200e+45	6.392661e-01	1.695736e-01	7.088371e+54	1.321172e+01	2.223130e+01
6090	8.337583e+09	5.917586e+39	5.776362e+45	6.394096e-01	1.698490e-01	6.967334e+54	1.317203e+01	2.216425e+01
6100	7.206242e+09	6.692962e+39	6.523184e+45	6.403947e-01	1.707351e-01	6.604339e+54	1.306857e+01	2.196859e+01
6110	6.191121e+09	7.782654e+39	7.568944e+45	6.417730e-01	1.718763e-01	6.166762e+54	1.294219e+01	2.172449e+01
6120	5.332807e+09	9.210676e+39	8.935198e+45	6.433929e-01	1.731595e-01	5.745305e+54	1.280575e+01	2.145773e+01
6130	4.606557e+09	1.106728e+40	1.070480e+46	6.452846e-01	1.746305e-01	5.284868e+54	1.265408e+01	2.115978e+01
6140	4.005961e+09	1.344462e+40	1.296208e+46	6.473850e-01	1.762259e-01	4.846284e+54	1.249540e+01	2.084602e+01
6150	3.507631e+09	1.660449e+40	1.594820e+46	6.498347e-01	1.780156e-01	4.416296e+54	1.232569e+01	2.050628e+01
6160	2.741706e+09	2.499445e+40	2.383478e+46	6.545177e-01	1.810413e-01	4.129090e+54	1.207036e+01	1.996945e+01
6170	2.034638e+09	6.003067e+40	5.614678e+46	6.673248e-01	1.901537e-01	2.539106e+54	1.131587e+01	1.845558e+01
6180	1.785108e+09	1.068373e+41	9.862935e+46	6.760921e-01	1.965358e-01	1.903369e+54	1.083391e+01	1.750341e+01
6190	1.703441e+09	1.226892e+41	1.129312e+47	6.780807e-01	1.980245e-01	1.801876e+54	1.072532e+01	1.729193e+01
6200	1.654039e+09	1.255570e+41	1.155453e+47	6.782311e-01	1.981893e-01	1.801528e+54	1.071102e+01	1.726701e+01
6210	1.613319e+09	1.230709e+41	1.133421e+47	6.777243e-01	1.978823e-01	1.831417e+54	1.072984e+01	1.730768e+01
6220	1.574399e+09	1.181457e+41	1.089314e+47	6.769455e-01	1.973806e-01	1.869452e+54	1.076246e+01	1.737579e+01
6230	1.534558e+09	1.121949e+41	1.035803e+47	6.760590e-01	1.968030e-01	1.906877e+54	1.080065e+01	1.745506e+01
6240	1.491823e+09	1.060618e+41	9.804797e+46	6.751640e-01	1.962219e-01	1.937906e+54	1.083924e+01	1.753535e+01
6250	1.444705e+09	1.003181e+41	9.285327e+46	6.743278e-01	1.956876e-01	1.959179e+54	1.087451e+01	1.760940e+01
6260	1.392094e+09	9.536918e+40	8.836819e+46	6.735984e-01	1.952364e-01	1.969488e+54	1.090366e+01	1.767174e+01
6270	1.332712e+09	9.142098e+40	8.478385e+46	6.730104e-01	1.948951e-01	1.967577e+54	1.092454e+01	1.771821e+01
6280	1.265714e+09	8.861786e+40	8.223592e+46	6.725874e-01	1.946824e-01	1.953660e+54	1.093560e+01	1.774580e+01
6290	1.193615e+09	8.710830e+40	8.086403e+46	6.723465e-01	1.946083e-01	1.930780e+54	1.093613e+01	1.775295e+01
6300	1.123766e+09	8.650745e+40	8.031859e+46	6.722431e-01	1.946295e-01	1.904019e+54	1.092986e+01	1.774635e+01
6310	1.056924e+09	8.666542e+40	8.046413e+46	6.722526e-01	1.947277e-01	1.875322e+54	1.091817e+01	1.772871e+01
6320	9.933015e+08	8.746609e+40	8.119583e+46	6.723492e-01	1.948847e-01	1.846708e+54	1.090239e+01	1.770270e+01
6330	9.329999e+08	8.883205e+40	8.244319e+46	6.725179e-01	1.950899e-01	1.818872e+54	1.088332e+01	1.766990e+01
6340	8.759681e+08	9.062842e+40	8.408187e+46	6.727459e-01	1.953334e-01	1.791121e+54	1.086176e+01	1.763186e+01
6350	8.223562e+08	9.283908e+40	8.609804e+46	6.730178e-01	1.956047e-01	1.765082e+54	1.083845e+01	1.759009e+01
6360	7.720432e+08	9.534354e+40	8.838069e+46	6.733221e-01	1.958950e-01	1.740087e+54	1.081406e+01	1.754593e+01
6370	7.249288e+08	9.820296e+40	9.098649e+46	6.736536e-01	1.962013e-01	1.717463e+54	1.078880e+01	1.749979e+01
6380	6.804707e+08	1.016695e+41	9.414300e+46	6.740496e-01	1.965512e-01	1.694859e+54	1.076068e+01	1.744779e+01
6390	6.394479e+08	1.050821e+41	9.724892e+46	6.744238e-01	1.968807e-01	1.674834e+54	1.073436e+01	1.739909e+01
6400	6.008194e+08	1.091706e+41	1.009678e+47	6.748569e-01	1.972506e-01	1.655546e+54	1.070542e+01	1.734503e+01
6410	5.647194e+08	1.138279e+41	1.052009e+47	6.753333e-01	1.976491e-01	1.637007e+54	1.067472e+01	1.728735e+01
6420	5.313559e+08	1.184455e+41	1.093931e+47	6.757995e-01	1.980359e-01	1.618582e+54	1.064523e+01	1.723178e+01
6430	5.008651e+08	1.227267e+41	1.132778e+47	6.762127e-01	1.983803e-01	1.602761e+54	1.061902e+01	1.718250e+01
6440	4.720700e+08	1.276654e+41	1.177560e+47	6.766735e-01	1.987575e-01	1.587280e+54	1.059074e+01	1.712900e+01
6450	4.450533e+08	1.331815e+41	1.227537e+47	6.771707e-01	1.991593e-01	1.572125e+54	1.056100e+01	1.707250e+01
6460	4.198163e+08	1.392260e+41	1.282253e+47	6.776969e-01	1.995800e-01	1.557273e+54	1.053021e+01	1.701381e+01
6470	3.963101e+08	1.457707e+41	1.341441e+47	6.782466e-01	2.000158e-01	1.542664e+54	1.049865e+01	1.695349e+01
6480	3.744573e+08	1.528029e+41	1.404974e+47	6.788164e-01	2.004641e-01	1.528250e+54	1.046651e+01	1.689192e+01
6490	3.541655e+08	1.603190e+41	1.472807e+47	6.794037e-01	2.009232e-01	1.513980e+54	1.043393e+01	1.682936e+01
6500	3.353355e+08	1.683229e+41	1.544965e+47	6.800072e-01	2.013922e-01	1.499719e+54	1.040097e+01	1.676595e+01
6510	3.178669e+08	1.768202e+41	1.621480e+47	6.806269e-01	2.018710e-01	1.485266e+54	1.036764e+01	1.670171e+01
6520	3.014261e+08	1.866498e+41	1.709838e+47	6.813363e-01	2.024125e-01	1.467761e+54	1.033048e+01	1.662979e+01
6530	2.833034e+08	2.024338e+41	1.851004e+47	6.825975e-01	2.033393e-01	1.425388e+54	1.026903e+01	1.650905e+01
6540	2.428672e+08	2.529983e+41	2.299745e+47	6.866364e-01	2.061706e-01	1.287963e+54	1.009176e+01	1.615376e+01
6550	1.546128e+08	7.653770e+41	6.735720e+47	7.092189e-01	2.222479e-01	7.442892e+53	9.183228e+00	1.435837e+01
6560	1.445235e+08	1.000092e+42	8.722891e+47	7.155968e-01	2.268806e-01	6.353417e+53	8.948142e+00	1.390188e+01
6570	1.415911e+08	1.081087e+42	9.396272e+47	7.181149e-01	2.288913e-01	5.715078e+53	8.843041e+00	1.370678e+01
6580	1.406836e+08	1.096326e+42	9.510213e+47	7.195126e-01	2.302133e-01	5.117737e+53	8.768235e+00	1.357618e+01
6590	1.402765e+08	1.094043e+42	9.473552e+47	7.207930e-01	2.315123e-01	4.518285e+53	8.693326e+00	1.344814e+01
6600	1.400336e+08	1.085707e+42	9.382594e+47	7.222351e-01	2.329844e-01	3.910507e+53	8.609556e+00	1.330530e+01
6610	1.399060e+08	1.077617e+42	9.296809e+47	7.234680e-01	2.342262e-01	3.465678e+53	8.540424e+00	1.318707e+01
6620	1.398347e+08	1.071506e+42	9.232115e+47	7.244067e-01	2.351576e-01	3.169561e+53	8.489575e+00	1.309979e+01
6630	1.397513e+08	1.062709e+42	9.138352e+47	7.258307e-01	2.365462e-01	2.780989e+53	8.415395e+00	1.297189e+01
6640	1.396607e+08	1.050868e+42	9.010456e+47	7.279312e-01	2.385425e-01	2.315993e+53	8.312133e+00	1.279260e+01
6650	1.395890e+08	1.039746e+42	8.888001e+47	7.301501e-01	2.405867e-01	1.932024e+53	8.210454e+00	1.261447e+01
6660	1.395291e+08	1.029394e+42	8.771645e+47	7.324692e-01	2.426567e-01	1.617760e+53	8.111588e+00	1.243955e+01
6670	1.394771e+08	1.019775e+42	8.661381e+47	7.348627e-01	2.447251e-01	1.362653e+53	8.016860e+00	1.227013e+01
6680	1.394303e+08	1.010855e+42	8.557085e+47	7.373132e-01	2.467741e-01	1.155966e+53	7.926986e+00	1.210745e+01
6690	1.393872e+08	1.002557e+42	8.458313e+47	7.397999e-01	2.487849e-01	9.886929e+52	7.842611e+00	1.195271e+01
6700	1.393464e+08	9.948022e+41	8.364620e+47	7.423001e-01	2.507388e-01	8.533731e+52	7.764274e+00	1.180691e+01
6710	1.393069e+08	9.875182e+41	8.275558e+47	7.447951e-01	2.526218e-01	7.436890e+52	7.692242e+00	1.167065e+01
6720	1.392683e+08	9.806982e+41	8.191335e+47	7.472565e-01	2.544149e-01	6.548984e+52	7.626893e+00	1.154475e+01
6730	1.392307e+08	9.744024e+41	8.113109e+47	7.496180e-01	2.560755e-01	5.840738e+52	7.569276e+00	1.143152e+01
6740	1.391940e+08	9.685958e+41	8.040727e+47	7.518587e-01	2.575964e-01	5.274124e+52	7.519080e+00	1.133069e+01
6750	1.391575e+08	9.631501e+41	7.973116e+47	7.539714e-01	2.589812e-01	4.817076e+52	7.475653e+00	1.124135e+01
6760	1.391210e+08	9.580191e+41	7.909783e+47	7.559596e-01	2.602394e-01	4.444701e+52	7.438223e+00	1.116227e+01
6770	1.390840e+08	9.531472e+41	7.850180e+47	7.578257e-01	2.613800e-01	4.138598e+52	7.406090e+00	1.109238e+01
6780	1.390465e+08	9.484676e+41	7.793692e+47	7.595708e-01	2.624099e-01	3.885278e+52	7.378686e+00	1.103082e+01
6790	1.390079e+08	9.439435e+41	7.739929e+47	7.611986e-01	2.633373e-01	3.674363e+52	7.355478e+00	1.097674e+01
6800	1.389682e+08	9.395694e+41	7.688768e+47	7.627129e-01	2.641695e-01	3.497946e+52	7.335983e+00	1.092938e+01
6810	1.389272e+08	9.352639e+41	7.639482e+47	7.641159e-01	2.649122e-01	3.349916e+52	7.319828e+00	1.088818e+01
6820	1.388844e+08	9.310588e+41	7.592225e+47	7.654151e-01	2.655747e-01	3.225050e+52	7.306546e+00	1.085234e+01
6830	1.388398e+08	9.268962e+41	7.546470e+47	7.666131e-01	2.661616e-01	3.119707e+52	7.295867e+00	1.082145e+01
6840	1.387931e+08	9.228192e+41	7.502459e+47	7.677185e-01	2.666815e-01	3.030439e+52	7.287398e+00	1.079484e+01
6850	1.387441e+08	9.187592e+41	7.459555e+47	7.687369e-01	2.671404e-01	2.954563e+52	7.280878e+00	1.077206e+01
6860	1.386927e+08	9.147297e+41	7.417828e+47	7.696708e-01	2.675419e-01	2.890363e+52	7.276113e+00	1.075280e+01
6870	1.386384e+08	9.107514e+41	7.377370e+47	7.705260e-01	2.678921e-01	2.836011e+52	7.272843e+00	1.073662e+01
6880	1.385811e+08	9.068052e+41	7.337948e+47	7.713089e-01	2.681960e-01	2.790038e+52	7.270888e+00	1.072319e+01
